t(s)	TM (0 mm) TM (24 mm) TM (41 mm) TM (59 mm) TM (80 mm) TM (99 mm) TM (121 mm)
0.00	934.771	939.795	942.864	945.586	948.431	949.703	950.803
0.10	934.326	940.011	942.777	945.518	948.337	949.670	950.854
0.20	933.630	939.797	942.774	945.446	948.467	949.613	950.717
0.30	932.945	939.800	942.887	945.563	948.447	949.650	950.911
0.40	932.347	939.855	942.774	945.484	948.307	949.671	950.763
0.50	931.292	939.552	942.452	945.361	948.248	949.674	950.724
0.60	930.170	939.618	942.579	945.442	948.495	949.640	950.713
0.70	929.211	939.426	942.514	945.339	948.357	949.464	950.660
0.80	927.870	939.547	942.432	945.268	948.294	949.551	950.742
0.90	926.728	939.669	942.841	945.398	948.374	949.377	950.673
1.00	925.485	939.552	942.448	945.361	948.134	949.448	950.632
1.10	924.279	939.617	942.624	945.395	948.318	949.486	950.735
1.20	923.178	939.607	942.503	945.282	948.369	949.484	950.679
1.30	921.592	939.511	942.641	945.431	948.296	949.549	950.653
1.40	920.638	939.645	942.598	945.530	948.391	949.556	950.522
1.50	919.294	939.465	942.572	945.389	948.265	949.571	950.579
1.60	918.186	939.306	942.474	945.425	948.328	949.627	950.758
1.70	917.096	939.535	942.611	945.271	948.209	949.565	950.680
1.80	915.857	939.316	942.564	945.213	948.204	949.579	950.832
1.90	914.681	939.355	942.615	945.455	948.339	949.714	950.757
2.00	913.531	939.370	942.515	945.306	948.304	949.553	950.676
2.10	912.143	939.159	942.579	945.423	948.319	949.667	950.641
2.20	910.989	939.307	942.778	945.411	948.464	949.644	950.782
2.30	909.761	939.172	942.676	945.364	948.270	949.596	950.539
2.40	908.534	939.071	942.552	945.454	948.338	949.625	950.759
2.50	907.335	939.262	942.712	945.522	948.333	949.471	950.644
2.60	906.118	939.014	942.649	945.313	948.273	949.472	950.714
2.70	904.915	939.132	942.656	945.366	948.250	949.598	950.786
2.80	903.675	939.109	942.747	945.457	948.280	949.525	950.621
2.90	902.512	939.025	942.518	945.213	948.284	949.598	950.894
3.00	901.396	939.058	942.681	945.494	948.355	949.570	950.873
3.10	900.128	938.987	942.687	945.236	948.250	949.534	950.756
3.20	898.746	938.752	942.601	945.518	948.348	949.429	950.624
3.30	897.678	938.905	942.773	945.395	948.272	949.409	950.697
3.40	896.487	938.800	942.546	945.359	948.308	949.442	950.619
3.50	895.345	938.814	942.643	945.372	948.279	949.574	950.708
3.60	894.282	938.787	942.663	945.407	948.280	949.460	950.713
3.70	893.008	938.484	942.616	945.311	948.175	949.482	950.823
3.80	891.958	938.578	942.560	945.336	948.273	949.472	950.695
3.90	890.793	938.456	942.645	945.378	948.216	949.449	950.779
4.00	889.696	938.238	942.427	945.306	948.239	949.561	950.676
4.10	888.715	938.161	942.476	945.366	948.250	949.499	950.855
4.20	887.695	937.940	942.408	945.318	948.259	949.443	950.657
4.30	886.557	937.735	942.359	945.341	948.329	949.528	950.658
4.40	885.744	937.867	942.499	945.420	948.247	949.438	950.726
4.50	884.683	937.464	942.302	945.349	948.360	949.490	950.743
4.60	883.873	937.454	942.450	945.420	948.369	949.545	950.741
4.70	882.983	937.146	942.467	945.383	948.321	949.436	950.769
4.80	881.913	936.974	942.253	945.457	948.306	949.459	950.708
4.90	881.238	936.935	942.424	945.460	948.214	949.474	950.731
5.00	880.384	936.611	942.256	945.418	948.328	949.401	950.670
5.10	879.654	936.456	942.308	945.328	948.311	949.476	950.794
5.20	878.996	936.170	942.228	945.206	948.373	949.477	950.803
5.30	877.982	935.773	942.088	945.410	948.378	949.417	950.773
5.40	877.352	935.604	942.247	945.397	948.404	949.434	950.691
5.50	876.603	935.378	942.006	945.351	948.335	949.411	950.726
5.60	875.870	934.993	942.102	945.383	948.282	949.516	950.926
5.70	875.317	934.787	942.099	945.256	948.244	949.447	950.753
5.80	874.479	934.379	941.744	945.162	948.284	949.468	950.878
5.90	873.570	933.917	941.706	945.270	948.364	949.513	950.882
6.00	872.742	933.699	941.802	945.350	948.280	949.510	950.886
6.10	872.188	933.492	941.793	945.406	948.267	949.348	950.696
6.20	871.432	933.141	941.553	945.205	948.188	949.353	950.732
6.30	870.664	932.657	941.393	945.274	948.311	949.437	950.767
6.40	869.887	932.556	941.442	945.365	948.241	949.475	950.643
6.50	869.380	932.239	941.319	945.189	948.233	949.413	950.827
6.60	868.818	931.721	941.141	945.137	948.135	949.465	950.821
6.70	868.082	931.456	941.185	945.173	948.191	949.505	950.892
6.80	867.341	930.960	941.002	945.189	948.127	949.418	950.705
6.90	866.635	930.733	940.859	945.061	948.213	949.447	950.669
7.00	865.981	930.458	940.958	945.234	948.263	949.462	950.592
7.10	865.296	929.913	940.795	945.208	948.157	949.375	950.663
7.20	864.654	929.872	940.670	945.060	948.219	949.349	950.549
7.30	864.198	929.542	940.629	944.950	948.079	949.332	950.585
7.40	863.425	929.117	940.392	945.019	948.044	949.281	950.684
7.50	862.945	928.861	940.369	944.988	948.132	949.258	950.668
7.60	862.221	928.387	940.192	944.960	948.066	949.276	950.480
7.70	861.564	928.152	939.980	944.978	948.118	949.321	950.493
7.80	860.948	928.069	940.068	945.016	948.184	949.291	950.555
7.90	860.367	927.457	939.887	944.900	948.017	949.209	950.435
8.00	859.672	927.197	939.983	944.900	948.029	949.182	950.485
8.10	859.226	927.130	939.732	944.940	947.931	949.184	950.333
8.20	858.651	926.596	939.541	944.760	947.805	949.103	950.337
8.30	858.126	926.486	939.450	944.707	948.016	949.234	950.395
8.40	857.671	926.142	939.227	944.722	947.989	949.207	950.364
8.50	856.920	925.698	939.038	944.613	947.972	949.217	950.393
8.60	856.457	925.520	939.193	944.803	948.088	949.203	950.288
8.70	855.802	925.078	938.849	944.631	947.959	949.096	950.188
8.80	855.487	924.943	938.805	944.595	947.930	949.106	950.279
8.90	855.049	924.642	938.719	944.519	947.935	949.107	950.291
9.00	854.462	924.215	938.466	944.489	947.763	949.104	950.314
9.10	854.083	923.985	938.427	944.407	947.911	949.080	950.371
9.20	853.433	923.669	938.298	944.447	947.820	949.023	950.054
9.30	853.028	923.250	938.210	944.462	947.832	949.042	950.253
9.40	852.762	923.211	938.026	944.369	947.866	949.172	950.164
9.50	852.180	922.792	937.771	944.386	947.794	948.997	950.027
9.60	851.724	922.460	937.774	944.286	947.671	949.023	950.165
9.70	851.498	922.272	937.601	944.277	947.854	948.968	950.083
9.80	850.940	921.909	937.305	944.119	947.692	949.090	950.186
9.90	850.651	921.651	937.330	944.151	947.693	949.092	950.099
10.00	850.351	921.475	937.092	944.054	947.684	948.937	950.033
10.10	849.912	920.925	936.908	943.966	947.715	949.006	950.018
10.20	849.663	920.785	936.971	944.094	947.689	948.866	950.030
10.30	849.207	920.486	936.838	943.881	947.557	948.909	949.898
10.40	848.894	920.185	936.533	944.039	947.592	948.964	950.033
10.50	848.707	919.917	936.509	943.957	947.599	948.851	950.012
10.60	848.402	919.686	936.223	943.675	947.469	948.795	949.998
10.70	848.024	919.510	936.189	943.629	947.512	948.894	949.910
10.80	847.885	919.111	935.934	943.622	947.344	948.815	949.922
10.90	847.567	918.825	935.689	943.596	947.459	948.861	950.014
11.00	847.178	918.571	935.668	943.673	947.537	948.897	949.855
11.10	846.936	918.262	935.541	943.631	947.513	948.843	949.900
11.20	846.557	917.877	935.258	943.366	947.536	948.816	949.911
11.30	846.264	917.784	935.211	943.537	947.473	948.818	949.768
11.40	845.974	917.499	934.902	943.362	947.306	948.635	949.819
11.50	846.559	917.368	934.851	943.250	947.335	948.706	949.791
11.60	847.995	916.958	934.723	943.221	947.264	948.624	949.839
11.70	849.953	916.754	934.446	943.119	947.354	948.676	949.702
11.80	851.830	916.599	934.470	943.052	947.282	948.707	949.937
11.90	853.313	916.323	934.277	943.112	947.094	948.618	949.699
12.00	854.765	916.220	934.300	943.023	947.097	948.648	949.767
12.10	855.681	915.953	934.139	943.050	947.215	948.625	949.790
12.20	856.667	915.650	933.775	942.857	947.195	948.466	949.585
12.30	857.266	915.461	933.814	942.969	947.119	948.575	949.590
12.40	857.758	915.072	933.657	942.846	947.103	948.578	949.689
12.50	858.008	914.970	933.478	942.705	947.066	948.671	949.544
12.60	858.402	914.795	933.367	942.797	947.177	948.594	949.556
12.70	858.466	914.371	933.107	942.636	947.046	948.579	949.625
12.80	858.742	914.062	933.053	942.551	947.115	948.463	949.616
12.90	858.848	914.162	932.943	942.445	947.100	948.663	949.548
13.00	858.787	913.670	932.721	942.490	947.034	948.570	949.613
13.10	858.876	913.611	932.616	942.305	947.037	948.504	949.569
13.20	858.902	913.428	932.501	942.308	946.998	948.680	949.611
13.30	858.664	912.967	932.256	942.186	946.937	948.599	949.557
13.40	858.663	912.826	932.237	942.143	946.921	948.468	949.560
13.50	858.588	912.864	932.130	942.102	946.952	948.534	949.538
13.60	858.384	912.423	931.966	942.175	946.883	948.473	949.523
13.70	858.379	912.353	931.812	941.947	946.771	948.441	949.452
13.80	858.165	912.108	931.715	941.823	946.785	948.462	949.547
13.90	858.147	911.944	931.410	941.831	946.789	948.363	949.371
14.00	858.170	911.781	931.471	941.789	946.831	948.256	949.375
14.10	857.979	911.562	931.439	941.658	946.746	948.496	949.504
14.20	857.796	911.325	931.006	941.614	946.599	948.361	949.403
14.30	857.789	911.272	931.137	941.623	946.595	948.346	949.430
14.40	857.575	910.904	930.836	941.559	946.608	948.347	949.439
14.50	857.453	910.659	930.648	941.394	946.691	948.201	949.281
14.60	857.467	910.594	930.564	941.374	946.695	948.346	949.315
14.70	857.246	910.269	930.351	941.353	946.631	948.332	949.382
14.80	857.204	910.047	930.168	941.191	946.531	948.259	949.412
14.90	857.088	909.961	930.173	941.201	946.487	948.463	949.505
15.00	856.804	909.759	929.848	941.005	946.494	948.421	949.390
15.10	856.877	909.540	929.677	941.121	946.411	948.257	949.357
15.20	856.759	909.314	929.707	940.960	946.318	948.337	949.417
15.30	856.533	909.232	929.510	940.724	946.297	948.277	949.342
15.40	856.589	909.084	929.549	940.672	946.256	948.209	949.343
15.50	856.546	908.788	929.274	940.683	946.321	948.290	949.462
15.60	856.248	908.591	929.081	940.574	946.170	948.135	949.345
15.70	856.268	908.519	929.105	940.437	946.216	948.166	949.315
15.80	856.149	908.267	928.943	940.566	946.135	948.130	949.348
15.90	855.940	908.045	928.740	940.301	946.065	948.121	949.347
16.00	855.918	908.034	928.648	940.247	946.153	948.152	949.225
16.10	855.855	907.743	928.395	940.283	946.185	948.142	949.372
16.20	855.634	907.544	928.283	940.068	946.054	948.164	949.321
16.30	855.582	907.370	928.333	940.126	946.135	948.180	949.353
16.40	855.493	907.090	928.060	940.028	946.221	948.148	949.232
16.50	855.426	906.912	927.962	939.934	945.973	948.087	949.183
16.60	855.337	906.841	927.891	939.886	946.074	948.185	949.070
16.70	855.259	906.565	927.614	939.723	946.000	948.152	949.229
16.80	855.270	906.587	927.457	939.742	945.899	948.094	949.213
16.90	855.094	906.391	927.466	939.739	945.867	948.103	949.237
17.00	854.936	906.031	927.170	939.538	945.903	948.132	949.105
17.10	854.929	905.856	927.147	939.504	945.822	948.059	949.147
17.20	854.821	905.737	927.122	939.491	945.920	948.126	949.256
17.30	854.634	905.568	926.800	939.340	945.689	948.128	949.147
17.40	854.744	905.549	926.759	939.206	945.785	947.933	949.094
17.50	854.590	905.261	926.633	939.326	945.644	947.957	949.198
17.60	854.504	905.098	926.513	938.991	945.592	947.851	949.234
17.70	854.538	905.000	926.368	938.949	945.581	947.940	949.089
17.80	854.423	904.637	926.214	938.886	945.617	947.873	949.011
17.90	854.242	904.484	926.088	938.939	945.564	947.892	949.083
18.00	854.169	904.385	925.961	938.904	945.513	947.945	949.113
18.10	854.017	904.061	925.827	938.762	945.478	947.910	948.979
18.20	853.975	904.076	925.750	938.670	945.493	947.940	949.143
18.30	853.863	903.871	925.541	938.488	945.352	947.891	949.064
18.40	853.989	903.857	925.394	938.428	945.426	947.797	948.958
18.50	853.819	903.599	925.287	938.455	945.450	947.885	949.042
18.60	853.710	903.338	925.040	938.223	945.336	947.913	949.005
18.70	853.831	903.327	924.979	938.204	945.298	947.791	948.967
18.80	853.639	903.103	924.923	938.247	945.123	947.727	949.056
18.90	853.496	902.864	924.733	938.045	945.146	947.769	948.957
19.00	853.565	902.952	924.718	937.945	945.189	947.659	948.888
19.10	853.392	902.695	924.483	937.959	945.187	947.699	949.005
19.20	853.263	902.406	924.338	937.752	944.987	947.645	949.074
19.30	853.297	902.360	924.349	937.630	945.087	947.698	948.932
19.40	853.256	902.348	924.097	937.717	944.999	947.675	948.932
19.50	853.134	902.070	924.043	937.583	944.994	947.472	949.023
19.60	853.152	902.058	923.962	937.498	944.912	947.582	948.811
19.70	853.019	901.746	923.794	937.578	944.931	947.512	948.995
19.80	852.945	901.512	923.594	937.243	944.723	947.461	948.982
19.90	853.007	901.540	923.554	937.188	944.862	947.562	948.750
20.00	852.802	901.277	923.407	937.313	944.846	947.569	948.898
20.10	852.811	901.138	923.276	937.219	944.748	947.586	948.800
20.20	852.692	901.063	923.224	937.163	944.742	947.656	948.909
20.30	852.538	900.776	922.985	936.893	944.732	947.509	948.884
20.40	852.645	900.781	922.864	936.875	944.672	947.456	948.789
20.50	852.589	900.633	922.857	936.853	944.584	947.410	948.889
20.60	852.341	900.369	922.611	936.656	944.387	947.362	948.772
20.70	852.430	900.428	922.575	936.570	944.450	947.407	948.751
20.80	852.417	900.149	922.375	936.675	944.495	947.413	948.968
20.90	852.164	899.989	922.250	936.573	944.335	947.321	948.804
21.00	852.163	900.012	922.257	936.388	944.346	947.271	948.684
21.10	852.051	899.822	922.036	936.381	944.380	947.287	948.708
21.20	851.984	899.634	921.885	936.353	944.241	947.158	948.625
21.30	851.965	899.645	921.927	936.211	944.240	947.208	948.625
21.40	851.818	899.399	921.805	936.055	944.226	947.289	948.710
21.50	851.702	899.180	921.498	936.106	944.120	947.164	948.539
21.60	851.813	899.230	921.506	936.080	944.056	947.188	948.651
21.70	851.650	898.974	921.380	935.888	944.147	947.249	948.651
21.80	851.645	898.738	921.185	935.731	943.932	947.087	948.646
21.90	851.643	898.778	921.202	935.664	943.953	947.143	948.614
22.00	851.502	898.579	921.052	935.606	944.036	947.149	948.796
22.10	851.480	898.353	920.817	935.541	943.930	947.050	948.586
22.20	851.465	898.357	920.866	935.400	943.922	947.031	948.590
22.30	851.242	898.205	920.589	935.382	943.781	946.952	948.476
22.40	851.314	897.965	920.607	935.389	943.907	947.146	948.675
22.50	851.199	897.800	920.453	935.200	943.725	946.938	948.619
22.60	851.186	897.950	920.501	935.156	943.662	946.997	948.530
22.70	851.010	897.687	920.221	935.113	943.723	946.916	948.620
22.80	850.940	897.532	920.044	935.114	943.586	946.810	948.584
22.90	851.061	897.539	920.070	934.908	943.651	946.906	948.503
23.00	850.818	897.261	919.734	934.796	943.543	946.951	948.529
23.10	850.919	897.222	919.855	934.673	943.554	946.896	948.474
23.20	850.836	897.036	919.691	934.819	943.554	946.912	948.567
23.30	850.613	896.853	919.595	934.585	943.408	946.751	948.566
23.40	850.733	896.826	919.492	934.485	943.404	946.792	948.428
23.50	850.439	896.801	919.371	934.501	943.436	946.774	948.460
23.60	850.488	896.569	919.184	934.379	943.359	946.675	948.345
23.70	850.432	896.501	919.242	934.502	943.260	946.668	948.403
23.80	850.251	896.394	919.086	934.261	943.264	946.794	948.510
23.90	850.297	896.202	918.866	934.179	943.086	946.616	948.259
24.00	850.261	896.169	918.948	934.077	943.168	946.636	948.402
24.10	850.108	895.969	918.732	933.976	943.188	946.634	948.319
24.20	850.060	895.777	918.559	933.870	943.152	946.544	948.340
24.30	849.982	895.615	918.518	933.940	943.031	946.625	948.353
24.40	849.854	895.635	918.305	933.754	943.047	946.569	948.212
24.50	849.929	895.520	918.305	933.876	942.962	946.561	948.262
24.60	849.775	895.247	918.077	933.723	942.909	946.604	948.350
24.70	849.904	895.144	917.890	933.544	942.848	946.424	948.335
24.80	849.787	895.119	917.994	933.407	942.811	946.490	948.317
24.90	849.688	894.871	917.749	933.357	942.871	946.577	948.389
25.00	849.783	894.780	917.628	933.381	942.776	946.398	948.167
25.10	849.534	894.819	917.682	933.263	942.781	946.494	948.233
25.20	849.475	894.563	917.467	933.189	942.702	946.420	948.254
25.30	849.675	894.516	917.309	933.061	942.663	946.369	948.184
25.40	849.455	894.413	917.298	933.008	942.564	946.407	948.318
25.50	849.305	894.258	917.043	932.848	942.442	946.438	948.227
25.60	849.409	894.206	917.167	932.674	942.462	946.287	948.179
25.70	849.337	894.149	917.030	932.766	942.436	946.233	948.248
25.80	849.258	893.975	916.828	932.759	942.272	946.222	948.099
25.90	849.250	893.845	916.805	932.621	942.317	946.176	948.294
26.00	849.167	893.751	916.615	932.487	942.314	946.092	948.038
26.10	849.041	893.662	916.525	932.444	942.213	946.186	948.185
26.20	848.952	893.473	916.447	932.296	942.099	946.061	948.126
26.30	848.930	893.467	916.395	932.263	942.143	946.047	948.180
26.40	848.757	893.498	916.357	932.260	942.090	946.105	948.043
26.50	848.858	893.349	916.273	932.156	941.944	946.009	948.039
26.60	848.741	893.242	916.082	932.003	942.043	946.028	948.119
26.70	848.740	893.013	915.853	932.006	941.947	945.916	948.045
26.80	848.730	892.928	915.897	931.901	941.998	945.861	948.001
26.90	848.470	892.802	915.775	931.878	941.895	945.933	948.009
27.00	848.582	892.756	915.649	931.756	941.757	945.837	947.986
27.10	848.502	892.779	915.640	931.675	941.714	945.806	948.012
27.20	848.326	892.662	915.500	931.573	941.776	945.857	947.936
27.30	848.333	892.274	915.321	931.488	941.711	945.783	947.813
27.40	848.308	892.317	915.284	931.619	941.727	945.869	947.910
27.50	848.145	892.097	915.090	931.490	941.781	945.754	947.957
27.60	848.139	892.015	915.000	931.266	941.572	945.752	947.901
27.70	848.146	892.025	914.904	931.402	941.560	945.855	947.838
27.80	847.998	891.907	915.030	931.200	941.487	945.763	947.946
27.90	847.976	891.896	914.737	931.010	941.419	945.626	947.786
28.00	848.068	891.794	914.779	931.098	941.469	945.676	947.832
28.10	847.838	891.499	914.549	931.050	941.329	945.574	947.822
28.20	847.909	891.495	914.460	930.835	941.294	945.630	947.733
28.30	847.839	891.428	914.393	930.913	941.403	945.548	947.742
28.40	847.785	891.192	914.187	930.851	941.325	945.532	947.810
28.50	847.793	891.172	914.179	930.698	941.218	945.600	947.814
28.60	847.753	891.095	914.154	930.555	941.182	945.683	947.900
28.70	847.666	890.878	913.846	930.395	941.052	945.523	947.809
28.80	847.687	890.883	913.817	930.389	941.015	945.382	947.730
28.90	847.563	890.854	913.825	930.302	940.982	945.490	947.708
29.00	847.558	890.701	913.634	930.167	941.057	945.405	947.726
29.10	847.545	890.581	913.525	930.161	940.940	945.284	947.666
29.20	847.507	890.517	913.590	930.108	940.956	945.392	947.774
29.30	847.285	890.294	913.371	929.945	940.969	945.405	947.710
29.40	847.394	890.327	913.320	929.963	940.761	945.239	947.686
29.50	847.315	890.316	913.233	929.902	940.673	945.392	947.771
29.60	847.135	890.094	912.980	929.714	940.565	945.341	947.700
29.70	847.343	890.006	912.991	929.633	940.633	945.103	947.703
29.80	846.939	889.950	912.961	929.695	940.588	945.173	947.608
29.90	847.080	889.913	912.840	929.432	940.455	945.112	947.605
30.00	847.127	889.881	912.781	929.522	940.538	945.161	947.604
30.10	847.011	889.525	912.561	929.409	940.535	945.005	947.593
30.20	846.948	889.537	912.521	929.322	940.318	945.094	947.556
30.30	846.930	889.554	912.469	929.335	940.441	945.003	947.534
30.40	846.830	889.385	912.509	929.199	940.199	944.944	947.621
30.50	846.716	889.327	912.352	929.138	940.198	944.890	947.409
30.60	846.892	889.298	912.178	929.223	940.230	944.926	947.311
30.70	846.706	889.120	912.087	929.082	940.177	944.872	947.564
30.80	846.783	888.999	912.126	928.991	940.143	944.705	947.435
30.90	846.560	888.946	911.974	928.812	940.059	944.774	947.611
31.00	846.655	888.894	911.781	928.657	939.980	944.679	947.429
31.10	846.565	888.982	911.884	928.650	939.938	944.649	947.475
31.20	846.369	888.625	911.690	928.661	939.874	944.772	947.525
31.30	846.468	888.657	911.520	928.483	939.844	944.601	947.381
31.40	846.469	888.574	911.410	928.484	939.883	944.720	947.374
31.50	846.443	888.357	911.353	928.266	939.753	944.644	947.328
31.60	846.467	888.298	911.282	928.363	939.667	944.538	947.433
31.70	846.418	888.318	911.241	928.219	939.717	944.719	947.395
31.80	846.299	888.209	911.186	928.247	939.631	944.548	947.332
31.90	846.295	888.107	911.052	928.102	939.535	944.498	947.190
32.00	846.258	888.031	911.072	928.011	939.490	944.346	947.264
32.10	846.037	887.871	910.953	927.945	939.454	944.486	947.331
